t,X(t),Y(t),d1_X(t),d2_X(t),d3_X(t),d4_X(t),d1_Y(t),d2_Y(t),d3_Y(t),d4_Y(t)
0.0,1.0,1.0,-2.0,6.0,-24.0,162.0,2.0,-4.0,18.0,-138.0
0.1,0.8265644025606279,1.182523986185639,-1.4983469212276934,4.206498914015202,-13.425336252738772,66.5552375303736,1.6717825186670656,-2.708151992787509,9.218837338723569,-53.129901277634836
0.2,0.6957638040883464,1.3375098381257347,-1.1355837287731325,3.125805570007382,-8.749793677671786,32.31411716721716,1.439819924684786,-1.9902218412342494,5.623988107664405,-23.564323489545373
0.3,0.5964958280405799,1.4723924038802112,-0.8620953863434673,2.384375825012469,-6.305541955007534,18.522439980659342,1.2655995583028874,-1.5222804386690014,3.9211661299950644,-12.216898025651806
0.4,0.5212279679319918,1.5919486011347066,-0.6524135131686664,1.8342690643981074,-4.797586763076714,12.392364871255495,1.1311855452366746,-1.181855551229441,2.963317698678606,-7.594778108178779
0.5,0.46440685149982897,1.699622287267694,-0.4910635383868156,1.4104681774937737,-3.7303775445272533,9.248127979309015,1.0266566868869866,-0.9194046391069581,2.319909367033479,-5.51775043478176
0.6,0.42176779383610163,1.7980557031145585,-0.36721851311732245,1.080089335402167,-2.9097667647309864,7.283872235761153,0.9454507192812207,-0.7128708222848446,1.829677429328819,-4.374105471030168
0.7,0.389990460717635,1.889323873642269,-0.2726097392968758,0.8229510995255293,-2.257305506235459,5.8220103258602265,0.8826192785792408,-0.5503413602286534,1.4343544067099296,-3.564704819624767
0.8,0.3664912278836919,1.9750588885211495,-0.200683257146254,0.6242523721439841,-1.7365103214971234,4.630528849570574,0.8341920292625622,-0.4235691149977301,1.1122579493531393,-2.894018528073452
0.9,0.3492731611596238,2.0565340709646454,-0.14621247267681015,0.4720233604096524,-1.3246014773995223,3.6382911379785137,0.7969393115171863,-0.3258108877328423,0.8525781169898696,-2.3136896605789916
1.0,0.33680569567277036,2.134731840304779,-0.10506290858982292,0.3563229267461767,-1.0030233145317027,2.8210534427440894,0.7682572129170526,-0.2512600181563538,0.646700387785526,-1.8180301282123863
1.1,0.3279250121858297,2.210401835691417,-0.07400489932339838,0.26896484115207236,-0.7551202527138823,2.1618143097390092,0.7460798871375687,-0.194959941828674,0.4861554115618098,-1.4066940570251263
1.2,0.32175203073677555,2.2841104870040323,-0.05054702540677791,0.20334038827802126,-0.5660422289931064,1.6410406313066916,0.7287949946700023,-0.15279336287124334,0.36270184071508516,-1.074998402313585
1.3,0.31762616091052964,2.3562822267202845,-0.032787864019248936,0.15422354842457464,-0.42302375917870977,1.2369235678868458,0.7151617031087194,-0.1214356844053257,0.2688002107541351,-0.8138998087081357
1.4,0.31505286059526894,2.4272328105839156,-0.019288427836738675,0.11755496235480788,-0.31549563057947416,0.9277322732680428,0.7042355672414696,-0.0982665345180692,0.19794066822466627,-0.6122366426885687
1.5,0.3136628618265963,2.4971956137782865,-0.008966377913500523,0.09022620000695952,-0.23497560190940833,0.6936915458182246,0.6953035160869043,-0.081259822093459,0.1447494019024488,-0.45871594390881615
1.6,0.3131809219501048,2.5663419856181235,-0.0010109892524434727,0.06988278158702586,-0.17481842824858668,0.5179227141297178,0.6878300673023388,-0.06887179233458239,0.1049356466615608,-0.34310428588113107
1.7,0.31340213821951923,2.63479677223859,0.00518355804213666,0.05475555005585013,-0.12991105493492794,0.38665079451500484,0.6814143037383442,-0.05993910809798679,0.0751555048790778,-0.2567397395800769
1.8,0.31417414136904026,2.7026500221308063,0.01006956197812614,0.04352272717660324,-0.09637086602629481,0.2889834655906309,0.6757562966528338,-0.05359228915472938,0.05284813884969157,-0.19261259956433605
1.9,0.3153837869445962,2.7699657394006896,0.013984849021891899,0.035200641022322746,-0.0712771630414016,0.21649907661722712,0.6706313640335121,-0.049185490044214644,0.03607652201907885,-0.14522191357582553
2.0,0.31694724827591353,2.836788388130759,0.017182167892005662,0.0290591256890239,-0.05244697127674516,0.16278973107747513,0.6658705838320809,-0.04624129358102956,0.02338784558772125,-0.11034275980072994
2.1,0.31880266129945034,2.9031477018287486,0.019851168778006523,0.024557086030883413,-0.03825540759193968,0.1230351703207121,0.6613461699225431,-0.044408254808889935,0.01369832156105627,-0.08477976272877241
2.2,0.3209046733369099,2.9690622245678138,0.02213476854444507,0.021293991514871324,-0.027495688525617526,0.0936387636027284,0.6569605581186452,-0.043428760059316396,0.006201697010746202,-0.06614307507711087
2.3,0.32322040773610283,3.034541907090762,0.0241413074838579,0.018973664191008682,-0.019272089325594363,0.07193234279987835,0.6526382847800392,-0.04311497167486658,0.0002984251345856809,-0.052660253474283984
2.4,0.3257264797926139,3.099589999998883,0.02595357363424755,0.01737740457153654,-0.012919163374148345,0.05594476908480846,0.6483199465731386,-0.04333097820578409,-0.004458241197388191,-0.04302560571066011
2.5,0.3284067932796865,3.1642044237795126,0.027635507398558135,0.01634413286951658,-0.007941314541731418,0.044224551910175394,0.6439576993217553,-0.043979640268074716,-0.008402818327785166,-0.03628323736844397
2.6,0.33125091751760855,3.228378748190278,0.02923719480676179,0.015755762994134892,-0.0039678436255701985,0.035706049835572753,0.6395118876756296,-0.04499295780089668,-0.011787919368564694,-0.03173820621000256
2.7,0.33425289760489385,3.292102878069225,0.03079860217518826,0.015526463340959723,-0.0007195990353522502,0.02960971674507324,0.6349485002199179,-0.046325065516147984,-0.014806864305607473,-0.02889011770972099
2.8,0.3374103895856658,3.3553635161711908,0.0323523881422938,0.01559480018429904,0.002015759829392255,0.025368409204679837,0.6302372222720404,-0.04794718832659284,-0.017610560013691295,-0.027384169034072092
2.9,0.34072404137129525,3.418144453885176,0.03392604233642449,0.015918021452532877,0.0044021615544105885,0.022573394550623703,0.6253499162922802,-0.049844063788957366,-0.020320183006943465,-0.026975556105034288
3.0,0.3441970618027609,3.4804267259058776,0.03554353608790706,0.016467936893321766,0.00656889785333456,0.020935158498581248,0.620259402109332,-0.05201147298122882,-0.023036834746656326,-0.027504056351915808
3.1,0.34783493632775336,3.5421886537629015,0.03722662400459886,0.017227999646585224,0.008621061602630431,0.020255330364336542,0.6149384396676478,-0.054454623651184086,-0.025849061249215655,-0.02887639196696698
3.2,0.35164525987356066,3.603405794523816,0.03899590159550792,0.018191306235515126,0.010647617236734998,0.020407025338827805,0.6093588385309314,-0.057187207831023046,-0.028838923472250116,-0.031054642575562806
3.3,0.35563766675129266,3.664050804191679,0.0408717002600858,0.019359316802954274,0.012727843333925938,0.02132168144835324,0.6034906329886216,-0.06023101706304007,-0.032087160136880205,-0.03404952478227918
3.4,0.35982384468377143,3.7240932197011762,0.042874884549866765,0.020741162882735364,0.014936727142445476,0.022981089720537123,0.5973012707663619,-0.06361604743260213,-0.03567789002518085,-0.03791781686298261
3.5,0.3642176259681208,3.7834991584839397,0.045027606042300494,0.0223534623517887,0.01734978693127421,0.025413827433057767,0.5907547679895785,-0.0673810683940892,-0.0397032492830629,-0.04276361436433197
3.6,0.36883515389283017,3.842230929905345,0.0473540623982307,0.02422060561204467,0.020047741819102093,0.02869575357753715,0.583810783708939,-0.07157466801027537,-0.04426834743114677,-0.04874349539663924
3.7,0.3736951272752297,3.9002465480765687,0.04988130863882434,0.026375518034484374,0.023121436349088247,0.03295466183551938,0.576423564085946,-0.07625682667330871,-0.04949695438357263,-0.05607609818460764
3.8,0.37881913078269264,3.9574991302240914,0.05264017025228851,0.028860945668805538,0.026677459924196074,0.03837966506998709,0.5685406989650188,-0.08150111592109405,-0.055538405593001605,-0.06505712499418316
3.9,0.38423206397331733,4.013936158504423,0.05566631476013617,0.03173135902678631,0.03084498691815253,0.045236477374417425,0.5601016212665465,-0.08739767378692248,-0.06257634594493883,-0.07608146429256996
4.0,0.3899626882217049,4.069498575324229,0.05900155070710511,0.03505562938760742,0.03578451783047248,0.053890564774301215,0.5510357610711899,-0.09405718009471253,-0.07084014721807991,-0.08967508260477368
4.1,0.3960443184866564,4.12411967214602,0.06269544225711088,0.03892071172461581,0.04169945356177823,0.0648413048770845,0.5412602392562327,-0.10161615398172669,-0.08062016528639404,-0.10654075843886274
4.2,0.40251569703626827,4.177723718423119,0.06680735623607581,0.043436679905069386,0.04885183123307764,0.07877206984852625,0.530676946727656,-0.1102440361411452,-0.09228851113814701,-0.12762390108160387
4.3,0.40942209990146894,4.2302242592866515,0.07140910058863659,0.04874362133340038,0.057584169593527246,0.09662392274503011,0.5191687995098943,-0.12015272192203696,-0.10632779092692762,-0.15420809233855737
4.4,0.4168167456224586,4.281521985858234,0.07658837511471606,0.05502113800308317,0.06835034567476925,0.11970506536316519,0.5065948792628254,-0.13160951311779923,-0.12337148367785244,-0.1880554110379344
4.5,0.4247626022154442,4.331502047490161,0.08245334693826956,0.0625015644225988,0.08175997186302005,0.14985545712504142,0.4927840508462863,-0.14495491136086835,-0.14426153628561883,-0.23161542898806148
4.6,0.4333347259196054,4.3800306262491615,0.08913880022020049,0.07148857458372204,0.09864324006280517,0.18969819188369602,0.4775264738601942,-0.16062737480392253,-0.1701318146465272,-0.28834143194650114
4.7,0.4426233199030786,4.426950523424313,0.09681451767100113,0.08238373475228417,0.12014730279269327,0.24302998555004668,0.4605621624259202,-0.1791982524232853,-0.20253103754497742,-0.36317728834274
4.8,0.4527377817339646,4.472075404629311,0.10569687243404013,0.09572497965475879,0.14788213777960876,0.3154393672463438,0.44156534583199525,-0.20142185208879892,-0.24360711743436758,-0.4633215050259526
4.9,0.46381212957148227,4.515182196401587,0.11606511340458758,0.11224331964468237,0.1841456224813247,0.4153059366260135,0.4201227570239302,-0.22830843304926995,-0.2963889421260071,-0.5994515591073382
5.0,0.47601238254997863,4.55600089408355,0.128284636069673,0.13294799407660984,0.23227821113499603,0.5554528250433547,0.3957029813803483,-0.26123263014628284,-0.36522620521160587,-0.7877310361783507
5.1,0.4895467607941287,4.59420067985913,0.14284085739451213,0.1592570006674192,0.2972348176870562,0.7559484538801399,0.36761238181135925,-0.30209785806193135,-0.4564918183544754,-1.0531832715671963
5.2,0.5046800339583739,4.629370678496285,0.16038954157163987,0.19320177751403445,0.38653043367327083,1.0489889037763853,0.3349304244699862,-0.3535913190856743,-0.5797322111873053,-1.4355193374496562
5.3,0.5217541062825328,4.6609927515869325,0.18183326799073907,0.23775632949411907,0.5118476886904527,1.4876661647087062,0.2964126257267281,-0.41958959748485813,-0.7496040181845717,-1.9995138533991592
5.4,0.5412182034682479,4.688402186757467,0.20844056349545115,0.2973814206228569,0.691854751204529,2.162245996771799,0.2503412330363013,-0.505821984118308,-0.9892361718273859,-2.8541007479763283
5.5,0.5636742409658563,4.7107294871632215,0.2420367562710104,0.37895272069962105,0.9573153213218419,3.2315108385813134,0.1942890027631332,-0.6209894769706314,-1.336268042021463,-4.188826159903155
5.6,0.5899469206928576,4.726811762531004,0.2853194479288419,0.49339956285681175,1.360710162740404,4.985579751311419,0.12473363137830029,-0.7787190107856536,-1.8541097255972157,-6.346289914051823
5.7,0.6211954771119417,4.735053564656062,0.34239865270018965,0.6587124137351696,1.9951220912035479,7.977440272959455,0.03640587018786867,-1.0011110664353593,-2.6538345049387178,-9.972562364163002
5.8,0.6590982667274584,4.733200411707708,0.41975900983183,0.9057050400331557,3.0330292033193706,13.311501263030385,-0.07885727655928854,-1.3254640498649857,-3.9387342433525268,-16.344530466349756
5.9,0.706170284523922,4.717954965837308,0.5280519934000063,1.2895909964052237,4.809966158338108,23.307313863644154,-0.23422227792392825,-1.81764298980523,-6.099557154743332,-28.117280021982268
6.0,0.7663350483224657,4.684295787820947,0.6856034128982933,1.9144527608048652,8.01395919824188,43.090634515731594,-0.4519384612207591,-2.6000561737031584,-9.928411959046745,-51.10459371397347
6.1,0.8460091630949795,4.6242036632082675,0.9256515904785001,2.987609466394785,14.131624161319305,84.46230088581144,-0.7716607535734799,-3.913261056873285,-17.119233627714088,-98.59392504713074
6.2,0.956276214656746,4.524142656882829,1.3120616309863586,4.944727154331195,26.49569985780166,174.44736105163005,-1.2683378456431047,-6.2567887853175534,-31.440427012132858,-200.9430609094317
6.3,1.1174717369355454,4.359808136904049,1.9743933057687828,8.72856455889669,52.3006660598626,361.97667466560915,-2.0918650427043284,-10.702957864665471,-61.029230618759286,-414.2773407254718
6.4,1.3689941464729458,4.0849601591377285,3.179830961576786,16.194715229836365,100.85557044139674,573.9820313967646,-3.5488251080497326,-19.374546191413152,-117.05028567123308,-674.8376018381614
6.5,1.7868926900189848,3.6110993867280636,5.38261716896213,28.234633990845968,115.98665540227975,-1014.8836996700054,-6.169509858981115,-33.6172511598081,-144.2212893931257,898.8970442677255
6.6,2.47601179622086,2.8113601350691857,8.331374012200618,22.53774377484315,-384.59623540367403,-9617.882138323632,-9.807385808421477,-30.86911778704377,362.0584916288309,10002.478373727306
6.7,3.320759778143303,1.7759709463147264,7.3013837148383605,-49.19231261211892,-665.3559701406944,11313.23223575822,-9.622143492981664,41.89092889728056,714.5482827528133,-10647.876265617524
6.8,3.750592212965433,1.0873976954762212,1.2939914047444319,-51.516097450907964,417.45511095682673,2263.368196781763,-4.044583617709867,50.22210604616353,-365.93901350591875,-2680.82330773859
6.9,3.690898773638294,0.8724052225133706,-1.8790510198237413,-15.644317582871928,229.22786909510444,-2661.5434432064085,-0.8118477538145523,17.52336860269567,-213.5835515122325,2432.3155741113037
7.0,3.4536269746272916,0.8518274483850611,-2.654302548222139,-2.6065788477218703,62.48357501816306,-852.8326192070015,0.20067557359484844,5.2608813959440095,-59.87699617044119,790.3490441888384
7.1,3.182801825939374,0.8907932419614277,-2.7072691400041933,0.7906514220826644,15.717587003749593,-220.5242196922303,0.5244673140648182,1.916617717921529,-16.508238425832257,204.80663268848068
7.2,2.9179278390359356,0.9507410912323145,-2.5768137508048046,1.6200472486990947,3.4639058688267497,-59.961786073982424,0.6588859117688681,0.9567665021057099,-5.083953117525844,56.49788020515568
7.3,2.668725880327369,1.0207540052490776,-2.404993641349817,1.7607984713179405,0.04386726240110406,-17.222624794765885,0.7362677610224475,0.6441951700318764,-1.8046657337190446,17.178757532364777
7.4,2.4369809550430532,1.0973588421463023,-2.230845536857786,1.706401265123545,-0.9254123172455522,-4.544668423938411,0.7938645818147334,0.5244442717342412,-0.7809889478779928,5.470080741183963
7.5,2.2222600394974696,1.1792556423459688,-2.0653572972531924,1.6000110569410921,-1.1336975493047312,-0.3418648512095537,0.8430972577557228,0.46534624031210026,-0.4663135076363609,1.4755624005142849
7.6,2.0235357018039255,1.265818817163719,-1.9109986276066433,1.4881092760486396,-1.0793159519982751,1.1839952731009546,0.8874629258027174,0.42288935155800367,-0.4087933240503645,-0.10467932110267952
7.7,1.8397020730598048,1.3566102382277538,-1.7673558975952952,1.3872838078653915,-0.9279827420457902,1.7444544687278984,0.9276538245354908,0.3800720897299037,-0.4593010658196013,-0.8164717266821082
7.8,1.6697557064757393,1.451195680811577,-1.6329671942234096,1.3035597641818804,-0.7443244047640594,1.8773090797857481,0.9632114877476701,0.3294074300415293,-0.559235359417821,-1.1329846750216888
7.9,1.512860511602189,1.5490658265849266,-1.5060223952162008,1.23839702029872,-0.5610479032913727,1.7509892368281168,0.9931618836140119,0.26762537491748084,-0.6773491170073473,-1.1899413335367441
8.0,1.368363821391802,1.6496023735525205,-1.3847075554050896,1.1905726459234964,-0.4009951293623617,1.4181365833001713,1.0163437340132875,0.19413490948159318,-0.7895775165611347,-1.0171414539378105
8.1,1.235784626789566,1.7520718539099593,-1.2674380705251926,1.1567840153291549,-0.2832307208471345,0.9118542208587073,1.0316534437356268,0.11065405519603777,-0.8735532944820203,-0.6286235000115727
8.2,1.1147808378147537,1.8556426856006716,-1.1530487956771807,1.132014501928369,-0.22257954758724452,0.2882076921954244,1.038267957862427,0.021034293748811717,-0.9094349543411244,-0.065628144608179
8.3,1.0050995880106528,1.959423339032681,-1.0409395531075685,1.1101046595645947,-0.22647122891423166,-0.3610574013965113,1.0358399650969152,-0.06916510645702623,-0.883633430650363,0.587528630310743
8.4,0.9065164008535921,2.0625172298940955,-0.9311467252734604,1.084658724697234,-0.29181643382730327,-0.9213663775152323,1.0246303244198687,-0.15351199942377347,-0.7928422908699302,1.213182811342536
8.5,0.8187721777862271,2.164086068954263,-0.8243116411524447,1.050163214978332,-0.40420664136374596,-1.2870742180729131,1.0055394633662178,-0.22585157382588728,-0.645956573614586,1.6912808594366595
8.6,0.7415189336422574,2.2634104206203203,-0.7215387702422005,1.0030132631283544,-0.5406168552310961,-1.3965926142958915,0.9800198365999431,-0.2814744928861539,-0.4623964078972582,1.9372094695269881
8.7,0.6742842554773905,2.359936098521595,-0.6241702283523773,0.9421114480237271,-0.6749968040700343,-1.252300302648223,0.9498859728749869,-0.3179412196713498,-0.2671146439536929,1.9272971067182567
8.8,0.6164603101434661,2.453298363816393,-0.5335306661693027,0.868848761949409,-0.7846100228853636,-0.9151023211656164,0.9170703560258366,-0.3353180957801063,-0.08423873906404555,1.69971234405098
8.9,0.5673172542390619,2.5433215735991404,-0.4507038501851839,0.7865180561966758,-0.8546965213691735,-0.4782497491756472,0.883386595946122,-0.3358142060114919,0.06817846517249748,1.3329462705448205
9.0,0.5260353947383304,2.629997735379072,-0.37638639356285397,0.6994089555792858,-0.8800815828355132,-0.03519498365771212,0.8503509988245236,-0.32302256201643187,0.18067262725622735,0.9152765664932254
9.1,0.4917473131966364,2.7134513055032374,-0.31083488559874684,0.6118934368086792,-0.8638950531175971,0.3442203058878224,0.8190875724021106,-0.3010585512099324,0.2520016163089178,0.5196747472297736
9.2,0.4635810060171913,2.7938986400196306,-0.2538946735765437,0.5277349889453233,-0.8146259147051951,0.622994936324887,0.7903136675593524,-0.2738403153687796,0.28689092575987174,0.19163097838030807
9.3,0.44069720997383105,2.8716091924614178,-0.20508204351900927,0.44971561463408,-0.7429199970442624,0.793717668002082,0.7643848335451782,-0.24463357111507072,0.29320438241018243,-0.05079767095782006
9.4,0.4223171576908001,2.9468730092416586,-0.16368857918014101,0.37955343547878284,-0.6590765329803017,0.868923583490882,0.741371421489341,-0.21586485629864183,0.2795230975015188,-0.20984705051058006
9.5,0.4077398603785298,3.019976448177798,-0.12888293994746713,0.3180192655288218,-0.5715836782604375,0.8707190185427189,0.7211430795689373,-0.18913632558135468,0.2535644127316157,-0.2991353402822814
9.6,0.39634999798366327,3.091186045527519,-0.09979531051789636,0.2651510533690631,-0.48658387297988215,0.822870387372636,0.7034453125342331,-0.1653557428511667,0.22143281961081906,-0.33628651439275364
9.7,0.3876184954573742,3.1607392927857396,-0.07557891474934153,0.22048772457198204,-0.40796523256938777,0.7461848059673672,0.6879604192919673,-0.1449088098226405,0.1874775079974057,-0.33821957339797937
9.8,0.3810980849023138,3.2288406392947215,-0.05544924670981133,0.18327573492005034,-0.3377700764516884,0.6566361195475264,0.6743511618074975,-0.127826488210239,0.15449434153163805,-0.3188660430958381
9.9,0.3764159032308261,3.295661066686954,-0.03870491547457933,0.15262875221996516,-0.2766945193479951,0.5652517410872362,0.6622890122437533,-0.11392383674538584,0.12406576712802991,-0.28855722173924125
